datetime,종가,시가,고가,저가,TR,14-day ATR
20-04-06,1224.6,1236.42,1239.51,1223.58,15.93,12.15071429
20-04-07,1214.93,1224.64,1225.56,1208.79,16.77,12.15071429
20-04-08,1215.76,1215.43,1223.19,1214.09,9.1,12.15071429
20-04-09,1210.58,1216.26,1222.36,1208.67,13.69,12.15071429
20-04-10,1211.05,1211.11,1216.1,1206.64,9.46,12.15071429
20-04-13,1215.46,1212.04,1221.7,1211.59,10.65,12.15071429
20-04-14,1212.46,1215.97,1219.45,1211.31,8.14,12.15071429
20-04-15,1224.68,1212.5,1225.77,1209.61,16.16,12.15071429
20-04-16,1228.94,1224.72,1230.53,1222.94,7.59,12.15071429
20-04-17,1216.13,1228.98,1229.45,1213.95,15.5,12.15071429
20-04-20,1220.58,1216.26,1222.63,1214.71,7.92,12.15071429
20-04-21,1232.56,1220.62,1241.82,1220.12,21.7,12.15071429
20-04-22,1233.55,1233.53,1237.91,1229.92,7.99,12.15071429
20-04-23,1233.04,1234.05,1237.23,1227.72,9.51,12.15071429
20-04-24,1230.53,1233.54,1238.24,1229.93,8.31,11.60642857
20-04-27,1222.05,1230.5,1235.1,1220.81,14.29,11.42928571
20-04-28,1221.31,1222.64,1227.95,1216.86,11.09,11.57142857
20-04-29,1210.99,1221.81,1223.45,1210.42,13.03,11.52428571
20-04-30,1212.94,1211.1,1215.69,1203.52,12.17,11.71785714
20-05-01,1224.89,1213.94,1225.87,1213.1,12.93,11.88071429
20-05-04,1224.14,1224.8,1230.53,1223.36,7.17,11.81142857
20-05-05,1222.47,1224.18,1224.82,1218.2,6.62,11.13
20-05-06,1228.55,1222.57,1230.03,1220.57,9.46,11.26357143
20-05-07,1219.61,1229.6,1230.06,1217.08,12.98,11.08357143
20-05-08,1219.65,1220.11,1221.82,1214.51,7.31,11.04
20-05-11,1222.91,1219.7,1226.18,1214.18,12,10.34714286
20-05-12,1226.64,1223.41,1228.95,1220.19,8.76,10.40214286
20-05-13,1227.37,1226.84,1229.4,1222.17,7.23,10.23928571
20-05-14,1227.03,1227.51,1234.03,1226.12,7.91,10.21071429
20-05-15,1232.69,1227.53,1235.58,1226.3,9.28,9.852857143
20-05-18,1225.13,1233.09,1235.04,1224.44,10.6,9.817857143
20-05-19,1225.04,1225.27,1227.55,1221.06,6.49,9.350714286
20-05-20,1227.26,1225.18,1232.7,1224.17,8.53,9.090714286
20-05-21,1233.19,1227.4,1234.52,1226.44,8.08,8.744285714
20-05-22,1240.59,1233.27,1244.51,1232.81,11.7,9.067857143
20-05-25,1240.45,1240.56,1244.89,1237.61,7.28,9.115
20-05-26,1230.9,1240.95,1242.7,1230.11,12.59,9.338571429
20-05-27,1238.19,1230.99,1239.51,1230.43,9.08,9.06
20-05-28,1237.97,1238.26,1242.59,1233.71,8.88,9.172142857
20-05-29,1231.49,1238.03,1240.7,1230.18,10.52,9.066428571
20-06-01,1222.92,1231.47,1232.19,1221.74,10.45,9.187142857
20-06-02,1219.62,1223.05,1227.33,1216.33,11,9.456428571
20-06-03,1215.79,1220.12,1220.67,1214.12,6.55,9.359285714
20-06-04,1216.39,1215.95,1220.2,1212.94,7.26,9.215
20-06-05,1202.02,1216.54,1218.76,1200.35,18.41,9.772857143
20-06-08,1195.35,1201.85,1205.88,1193.92,11.96,10.16357143
20-06-09,1198.4,1195.9,1202.93,1194.99,7.94,10.12142857
20-06-10,1190.67,1198.52,1200.79,1184.24,16.55,10.72642857
20-06-11,1206.1,1190.79,1208.4,1188.11,20.29,11.34
20-06-12,1203.66,1206.2,1210.48,1200.61,9.87,11.525
20-06-15,1208.55,1203.61,1217.13,1203.16,13.97,11.62357143
20-06-16,1211.79,1208.65,1215.22,1204.09,11.13,11.77
20-06-17,1215.41,1212.29,1219.26,1210.35,8.91,11.77214286
20-06-18,1212.5,1215.53,1218.09,1207.76,10.33,11.75857143
20-06-19,1211.83,1212.6,1214.16,1205.62,8.54,11.62214286
20-06-22,1209.41,1211.89,1216.35,1208.77,7.58,11.37785714
20-06-23,1207.46,1209.53,1216.4,1205.47,10.93,11.69071429
20-06-24,1206.08,1208.45,1208.87,1198.71,10.16,11.89785714
20-06-25,1202.21,1206.2,1209.08,1200.91,8.17,11.16642857
20-06-26,1203.8,1202.36,1204.83,1197,7.83,10.87142857
20-06-29,1199.16,1203.63,1205.96,1197.46,8.5,10.91142857
20-06-30,1199.28,1199.66,1204.68,1195.09,9.59,10.41428571
20-07-01,1201.51,1199.44,1205.05,1197.92,7.13,9.474285714
20-07-02,1198.75,1201.67,1204.15,1196.68,7.47,9.302857143
20-07-03,1198.93,1199.25,1202.47,1197.77,4.7,8.640714286
20-07-06,1191.92,1199.66,1200.1,1191.11,8.99,8.487857143
20-07-07,1196.75,1192.04,1197.78,1189.23,8.55,8.462142857
20-07-08,1192.05,1196.84,1199.53,1192.08,7.45,8.256428571
20-07-09,1196.98,1192.68,1199.13,1191.04,8.09,8.224285714
20-07-10,1200.42,1197.06,1206.03,1196.18,9.85,8.386428571
20-07-13,1203.37,1200.52,1204.48,1198.69,5.79,8.019285714
20-07-14,1204.89,1203.87,1208.74,1203.07,5.67,7.698571429
20-07-15,1200.5,1205.01,1205.49,1198.81,6.68,7.592142857
20-07-16,1205.11,1201,1207.6,1200.08,7.52,7.57
20-07-17,1203.44,1205.23,1207.35,1202.92,4.43,7.279285714
20-07-20,1200.9,1203.53,1206.93,1200.46,6.47,7.056428571
20-07-21,1193.92,1201.02,1202.02,1192.34,9.68,7.238571429
20-07-22,1197.22,1194.03,1199.91,1192.29,7.62,7.249285714
20-07-23,1201.45,1197.38,1203.85,1195.58,8.27,7.504285714
20-07-24,1201.5,1201.95,1204.59,1198.71,5.88,7.282142857
20-07-27,1195.57,1201.49,1202.32,1194.12,8.2,7.257142857
20-07-28,1199.46,1196.07,1202.16,1190.1,12.06,7.586428571
20-07-29,1189.79,1199.54,1200.05,1189.76,10.29,7.743571429
20-07-30,1189.62,1190.04,1198.22,1187.59,10.63,7.799285714
20-07-31,1193.59,1189.73,1196.11,1186.27,9.84,8.088571429
20-08-03,1192.59,1194.1,1196.79,1191.31,5.48,8.075
20-08-04,1193.2,1192.7,1197.12,1191.18,5.94,8.022142857
20-08-05,1186.05,1193.32,1193.81,1183.31,10.5,8.235
20-08-06,1183.5,1186.24,1187.47,1182.51,4.96,8.272857143
20-08-07,1188.68,1184,1191.28,1183.07,8.21,8.397142857
20-08-10,1185.58,1189.19,1189.64,1183.9,5.74,8.115714286
20-08-11,1185.62,1186.08,1187.97,1181.69,6.28,8.02
20-08-12,1183.23,1186.12,1187.77,1182.33,5.44,7.817857143
20-08-13,1184.92,1183.74,1186.32,1181.24,5.08,7.760714286
20-08-14,1186.94,1185.15,1188.06,1183.92,4.14,7.470714286
20-08-17,1183.19,1185.9,1187.27,1183.63,3.64,6.869285714
20-08-18,1182.7,1184.14,1186.7,1182.89,3.81,6.406428571
20-08-19,1181.74,1183.79,1184.57,1176.04,8.53,6.256428571
20-08-20,1185.24,1182.24,1190.91,1181.53,9.38,6.223571429
20-08-21,1191.72,1185.36,1193.51,1183.1,10.41,6.575714286
20-08-24,1188.66,1192.12,1193.03,1186.47,6.56,6.62
20-08-25,1187.35,1189.04,1190.22,1184.7,5.52,6.264285714
20-08-26,1184.39,1187.48,1188.94,1184.16,4.78,6.251428571
20-08-27,1187.44,1184.79,1188.51,1182.82,5.69,6.071428571
20-08-28,1180.48,1187.56,1188.29,1180.03,8.26,6.251428571
20-08-31,1187.94,1180.51,1188.87,1178.91,9.96,6.514285714
20-09-01,1185.45,1188.07,1188.69,1181.68,7.01,6.626428571
20-09-02,1189.13,1185.58,1191.71,1184.18,7.53,6.801428571
20-09-03,1191.48,1189.63,1192.56,1185.47,7.09,7.012142857
20-09-04,1187.3,1191.73,1193.21,1186.94,6.27,7.2
20-09-07,1187.27,1187.33,1189.67,1185.85,3.82,7.200714286
20-09-08,1190.1,1187.77,1190.87,1185.8,5.07,6.953571429
20-09-09,1184.79,1190.23,1191.79,1184.05,7.74,6.836428571
20-09-10,1188.11,1184.92,1188.73,1183.88,4.85,6.439285714
20-09-11,1187.89,1188.21,1190.27,1185.6,4.67,6.304285714
20-09-14,1181.51,1187.99,1188.86,1180.21,8.65,6.527857143
20-09-15,1179.76,1181.89,1183.53,1176.74,6.79,6.671428571
20-09-16,1172.88,1180.26,1181.93,1169.9,12.03,7.124285714
20-09-17,1169.2,1172.97,1178.18,1168.43,9.75,7.230714286
20-09-18,1164.81,1169.7,1170.78,1159.4,11.38,7.332142857
20-09-21,1163.61,1165,1168.31,1156.46,11.85,7.677857143
20-09-22,1163.61,1164.84,1166.03,1158.93,7.1,7.647142857
20-09-23,1170.65,1163.65,1172.46,1160.69,11.77,7.981428571
20-09-24,1169.1,1170.78,1176.31,1167.08,9.23,8.192857143
20-09-25,1174.32,1169.6,1178.03,1168.35,9.68,8.611428571
20-09-28,1166.85,1174.44,1175.23,1166.81,8.42,8.850714286
20-09-29,1168.73,1167.35,1171.6,1166.38,5.22,8.670714286
20-09-30,1164.65,1168.82,1171.58,1163.73,7.85,8.885
20-10-01,1162.83,1164.75,1165.84,1160.7,5.14,8.918571429
20-10-02,1166.26,1162.93,1168.28,1162.18,6.1,8.736428571
20-10-05,1157.12,1166.35,1167.33,1156.59,10.74,9.018571429
20-10-06,1164.37,1157.29,1166.07,1156.42,9.65,8.848571429
20-10-07,1157.26,1164.87,1166.56,1156.14,10.42,8.896428571
20-10-08,1151.11,1157.38,1159.31,1150.43,8.88,8.717857143
20-10-09,1143.52,1151.22,1151.87,1141.86,10.01,8.586428571
20-10-12,1147.79,1143.65,1152.14,1143.11,9.03,8.724285714
20-10-13,1148.3,1148.29,1151.93,1144.46,7.47,8.417142857
20-10-14,1147.14,1148.8,1150,1142.28,7.72,8.309285714
20-10-15,1145.14,1147.2,1149.46,1141.53,7.93,8.184285714
20-10-16,1142.13,1145.23,1148.14,1140.73,7.41,8.112142857
20-10-19,1140.06,1142.21,1143.96,1137.26,6.7,8.217857143
20-10-20,1138.39,1140.63,1141.88,1137.25,4.63,7.987857143
20-10-21,1132.54,1138.77,1140.1,1130.61,9.49,8.298571429
20-10-22,1134.74,1133.07,1137.55,1131.96,5.59,8.262142857
20-10-23,1127.95,1135.14,1136.94,1126.23,10.71,8.26
20-10-26,1132.44,1128.45,1134.16,1127.06,7.1,8.077857143
20-10-27,1129.21,1132.51,1133.43,1124.69,8.74,7.957857143
20-10-28,1134.93,1129.28,1138.97,1126.57,12.4,8.209285714
20-10-29,1130.06,1135.14,1136.08,1130.19,5.89,7.915
20-10-30,1136.49,1130.56,1139.16,1126.23,12.93,8.193571429
20-11-02,1132.95,1136.6,1137.6,1132.59,5.01,8.017857143
20-11-03,1131.32,1133.1,1137.16,1129.79,7.37,7.992857143
20-11-04,1127.65,1131.39,1147.82,1125.47,22.35,9.022857143
20-11-05,1122.88,1129.66,1134.41,1121.6,12.81,9.408571429
20-11-06,1121.4,1123.38,1127.18,1118.45,8.73,9.553571429
20-11-09,1119.06,1121.91,1122.35,1110.42,11.93,10.075
20-11-10,1117.07,1119.45,1120.29,1113.6,6.69,9.875
20-11-11,1112.39,1117.2,1118.13,1108.93,9.2,10.13285714
20-11-12,1114.86,1112.49,1116.31,1110.46,5.85,9.785714286
20-11-13,1107.62,1115.03,1117.12,1107.03,10.09,9.999285714
20-11-16,1107.04,1108.25,1110.56,1105.09,5.47,9.765714286
20-11-17,1105.38,1107.16,1108.39,1103.98,4.41,9.195
20-11-18,1106.17,1105.79,1107.84,1101.61,6.23,9.219285714
20-11-19,1113.59,1106.67,1119.09,1106.08,13.01,9.225
20-11-20,1114.95,1114.09,1117.87,1112.31,5.56,9.264285714
20-11-23,1113.51,1115.08,1116.82,1109.91,6.91,9.231428571
20-11-24,1110.24,1114.01,1114.68,1108.08,6.6,8.106428571
20-11-25,1106.21,1110.64,1111.51,1104.69,6.82,7.678571429
20-11-26,1105.57,1106.33,1108.77,1103.13,5.64,7.457857143
20-11-27,1104.43,1106.07,1107.47,1102.43,5.04,6.965714286
20-11-30,1109.32,1105.02,1110.34,1103.2,7.14,6.997857143
20-12-01,1105.73,1109.82,1110.35,1105.2,5.15,6.708571429
20-12-02,1100.02,1106.23,1107.01,1099.22,7.79,6.847142857
20-12-03,1092.08,1100.16,1101.91,1089.7,12.21,6.998571429
20-12-04,1083.77,1092.2,1093.71,1080.57,13.14,7.546428571
20-12-07,1083.53,1083.87,1088.35,1080.39,7.96,7.8
20-12-08,1084.86,1084.53,1087.79,1082.49,5.3,7.733571429
20-12-09,1086.48,1085.79,1088.97,1080.82,8.15,7.386428571
20-12-10,1085.55,1087.38,1091.93,1084.12,7.81,7.547142857
20-12-11,1091.67,1087.34,1094.56,1085.27,9.29,7.717142857
20-12-14,1093.07,1091.8,1094.91,1088.85,6.06,7.678571429
20-12-15,1089.43,1093.32,1096.14,1088.49,7.65,7.737857143
20-12-16,1092.36,1089.56,1096.55,1088.05,8.5,7.942142857
20-12-17,1093.01,1094.12,1095.43,1090.27,5.16,7.950714286
20-12-18,1099.39,1094.01,1100.78,1092.34,8.44,8.043571429
20-12-21,1102.55,1099.48,1112.74,1097.94,14.8,8.732857143
20-12-22,1109.72,1104.31,1111.05,1102.46,8.59,8.79
20-12-23,1106.65,1109.94,1111.05,1104.68,6.37,8.372857143
20-12-24,1101.59,1106.87,1107.47,1100.48,6.99,7.933571429
20-12-25,1099.07,1102.66,1102.81,1100.03,2.78,7.563571429
20-12-28,1095.6,1100.08,1103.55,1093.51,10.04,7.902142857
20-12-29,1090.97,1097.3,1098.57,1090.63,7.94,7.887142857
20-12-30,1087.62,1091.97,1093.92,1084.52,9.4,8.000714286
20-12-31,1084.47,1088.43,1090.35,1082.97,7.38,7.864285714
21-01-01,1084.73,1085.69,1086.1,1085.25,1.63,7.547857143
21-01-04,1086.48,1085.73,1088.3,1080.02,8.28,7.592857143
21-01-05,1086.42,1086.69,1090.33,1082.04,8.29,7.577857143
21-01-06,1087.93,1087.4,1089.79,1083.91,5.88,7.629285714
21-01-07,1094.28,1088.03,1096.78,1085.42,11.36,7.837857143
21-01-08,1092.93,1094.35,1099.21,1088.79,10.42,7.525
21-01-11,1097.23,1093.01,1101.05,1092.73,8.32,7.505714286
21-01-12,1094.48,1097.38,1103.46,1092.97,10.49,7.8
21-01-13,1097.12,1094.6,1099.33,1092.37,6.96,7.797857143
21-01-14,1095.88,1098.11,1103.42,1093.93,9.49,8.277142857
21-01-15,1103.27,1096.04,1105.33,1094.93,10.4,8.302857143
21-01-18,1102.52,1104.26,1108.42,1102.28,6.14,8.174285714
21-01-19,1101.44,1104.18,1106.17,1100.2,5.97,7.929285714
21-01-20,1096.35,1102.44,1103.39,1096.88,6.51,7.867142857
21-01-21,1099.88,1097.35,1102.67,1096.59,6.32,8.202142857
21-01-22,1105.41,1099.97,1107.29,1098.95,8.34,8.206428571
21-01-25,1102.58,1105.54,1105.92,1100.05,5.87,8.033571429
21-01-26,1101.02,1102.69,1108.24,1100.47,7.77,8.168571429
21-01-27,1108.38,1102.01,1109.9,1100.87,9.03,8.002142857
21-01-28,1112.52,1108.42,1121.36,1107.49,13.87,8.248571429
21-01-29,1117.64,1113.24,1121.76,1112.15,9.61,8.340714286
21-02-01,1116.51,1118.43,1120.98,1115.55,5.43,7.979285714
21-02-02,1115.37,1117.44,1119.7,1113.65,6.05,7.914285714
21-02-03,1113.46,1115.51,1117.25,1111.8,5.45,7.625714286
21-02-04,1120,1113.58,1122.74,1112.48,10.26,7.615714286
21-02-05,1116.77,1120.11,1127.85,1116.22,11.63,8.007857143
21-02-08,1115.61,1117.76,1122.17,1116.05,6.12,8.018571429
21-02-09,1110.88,1117.31,1118.75,1110.08,8.67,8.172857143
21-02-10,1105.48,1111.01,1114.16,1103.59,10.57,8.476428571
21-02-11,1102.12,1106.48,1108.02,1102.05,5.97,8.307142857
21-02-12,1102.59,1103.12,1107.59,1101.73,5.86,8.306428571
21-02-15,1101.31,1104.37,1106,1100.7,5.3,8.13
21-02-16,1106.58,1102.31,1109.55,1096.91,12.64,8.387857143
21-02-17,1105.61,1107.58,1110.81,1104.49,6.32,7.848571429
21-02-18,1106.96,1106.5,1110.15,1103.19,6.96,7.659285714
21-02-19,1104.27,1107.08,1111.28,1102.22,9.06,7.918571429
21-02-22,1111.59,1106.02,1116.1,1102.83,13.27,8.434285714
21-02-23,1110.13,1112.58,1114.81,1108.24,6.57,8.514285714
21-02-24,1107.27,1110.22,1113.75,1106.08,7.67,8.329285714
21-02-25,1118.77,1107.54,1121.61,1105.7,15.91,8.635
21-02-26,1123.89,1119.47,1130.33,1118.41,11.92,9.049285714
21-03-01,1113.33,1124.89,1125.15,1113.09,12.06,9.291428571
21-03-02,1125.01,1113.53,1128.28,1102.06,26.22,10.40928571
21-03-03,1126.05,1125.29,1128.05,1116.95,11.1,10.77571429
21-03-04,1130.87,1127.05,1133.06,1123.36,9.7,11.05
21-03-05,1128,1131.03,1137.27,1124.04,13.23,11.61642857
21-03-08,1140.83,1128.85,1144.07,1127.06,17.01,11.92857143
21-03-09,1134.91,1141.83,1144.85,1133.38,11.47,12.29642857
21-03-10,1135.91,1135.91,1145.6,1135.31,10.69,12.56285714
21-03-11,1130.35,1136.91,1140.99,1128.9,12.09,12.77928571
21-03-12,1136,1130.85,1139.35,1127.27,12.08,12.69428571
21-03-15,1132.35,1136.5,1138.78,1130.92,7.86,12.78642857
21-03-16,1129,1132.85,1135.91,1128.14,7.77,12.79357143
21-03-17,1121.21,1129.93,1134.31,1120.65,13.66,12.63285714
21-03-18,1127.75,1121.91,1131.3,1120.04,11.26,12.58571429
21-03-19,1129.12,1128.25,1134.8,1125.31,9.49,12.40214286
21-03-22,1126,1129.47,1134.01,1125.61,8.4,11.12928571
21-03-23,1132.9,1126.49,1134.48,1125.02,9.46,11.01214286
21-03-24,1134.9,1133.4,1135.96,1130.24,5.72,10.72785714
21-03-25,1135.12,1135.4,1138.02,1131.93,6.09,10.21785714
21-03-26,1128.52,1135.24,1136.09,1128.07,8.02,9.575714286
21-03-29,1131.56,1128.95,1136.41,1128.77,7.89,9.32
21-03-30,1132.59,1132.56,1136.29,1131.42,4.87,8.904285714
21-03-31,1127.17,1133.54,1134.68,1125.32,9.36,8.709285714
21-04-01,1128.72,1127.96,1133.82,1125.31,8.51,8.454285714
21-04-02,1128.64,1128.86,1130.38,1126.29,4.09,8.185
21-04-05,1124.18,1129.69,1130.03,1122.45,7.58,8.171428571
21-04-06,1119.17,1125.04,1125.68,1116.57,9.11,7.846428571
21-04-07,1119.03,1119.29,1120.36,1114.67,5.69,7.448571429
21-04-08,1115.83,1119.2,1121.56,1114.59,6.97,7.268571429
21-04-09,1120.98,1116.75,1122.58,1113.15,9.43,7.342142857
21-04-12,1124.32,1121.77,1127.28,1120.29,6.99,7.165714286
21-04-13,1121.37,1125.23,1128.42,1120.38,8.04,7.331428571
21-04-14,1116.08,1121.55,1123.91,1112.09,11.82,7.740714286
21-04-15,1116.68,1116.26,1119.82,1113.01,6.81,7.654285714
21-04-16,1116.5,1116.85,1121.57,1113.06,8.51,7.698571429
21-04-19,1115.33,1117.05,1120.26,1112.94,7.32,7.873571429
21-04-20,1117.28,1115.51,1119.74,1110.29,9.45,7.88
21-04-21,1116.35,1117.45,1121.61,1114.78,6.83,7.76
21-04-22,1118.79,1116.7,1121.69,1114.13,7.56,8.007857143
21-04-23,1114.72,1120.18,1121.54,1113.94,7.6,8.009285714
21-04-26,1110.27,1115.85,1116.95,1108.96,7.99,7.929285714
21-04-27,1113.33,1110.44,1114.55,1108.27,6.28,7.971428571
21-04-28,1109.88,1113.43,1115.52,1108.31,7.21,7.988571429
21-04-29,1107.63,1110.06,1111.17,1105.3,5.87,7.734285714
21-04-30,1117.16,1107.81,1119.45,1106.52,12.93,8.158571429
21-05-03,1120.34,1117.76,1124.94,1115.51,9.43,8.257857143
21-05-04,1125.77,1120.5,1128.92,1118.84,10.08,8.133571429
21-05-05,1124.72,1125.94,1128.3,1122.18,6.12,8.084285714
21-05-06,1120.28,1125.02,1127.02,1119.63,7.39,8.004285714
21-05-07,1111.23,1120.45,1123.67,1109.48,14.19,8.495
21-05-10,1116.68,1112.97,1118.1,1110.49,7.61,8.363571429
21-05-11,1119.58,1116.83,1122.39,1114.95,7.44,8.407142857
21-05-12,1132.73,1119.67,1133.94,1118.74,15.2,8.952857143
21-05-13,1126.73,1132.92,1136.13,1126.17,9.96,9.121428571
21-05-14,1125.79,1126.89,1131.31,1125.23,6.08,8.985
21-05-17,1136.73,1126.52,1139.74,1125.95,13.95,9.532857143
21-05-18,1126.93,1136.91,1139.74,1125.64,14.1,10.025
21-05-19,1131.18,1127.07,1133.31,1124.6,8.71,10.22785714
21-05-20,1127.66,1131.35,1134.41,1127.17,7.24,9.821428571
21-05-21,1127.63,1127.99,1129.36,1122.24,7.12,9.656428571
21-05-24,1123.48,1127.86,1129.6,1122.8,6.8,9.422142857
21-05-25,1122.36,1123.6,1126.55,1120.35,6.2,9.427857143
21-05-26,1116.61,1122.54,1123.49,1114.67,8.82,9.53
21-05-27,1118.55,1116.79,1120.32,1115.07,5.25,8.891428571
21-05-28,1113.08,1118.72,1119.35,1112.86,6.49,8.811428571
21-05-31,1106.58,1113.83,1117.42,1106.5,10.92,9.06
21-06-01,1108.38,1108.08,1110.59,1104.69,5.9,8.395714286
21-06-02,1110.92,1108.49,1114.81,1106.78,8.03,8.257857143
21-06-03,1116.46,1111.1,1118.82,1108.86,9.96,8.535
21-06-04,1110.52,1116.64,1119.51,1108.77,10.74,8.305714286
21-06-07,1110.62,1110.68,1114.53,1109.07,5.46,7.688571429
21-06-08,1117.72,1110.8,1118.81,1108.99,9.82,7.767857143
21-06-09,1115.61,1117.72,1119.02,1112.3,6.72,7.730714286
21-06-10,1112.32,1117.03,1119.26,1111.93,7.33,7.745714286
21-06-11,1116.4,1112.56,1118.54,1109.25,9.29,7.923571429
21-06-14,1116.33,1116.55,1120.05,1114.45,5.6,7.880714286
21-06-15,1117.09,1117.33,1119.39,1116.14,3.25,7.482857143
21-06-16,1132.68,1118.09,1137.17,1115.74,21.43,8.638571429
21-06-17,1134.3,1132.84,1137,1127.35,9.65,8.864285714
21-06-18,1134.94,1134.47,1138.14,1128.06,10.08,8.804285714
21-06-21,1131.4,1135.24,1139.47,1130.91,8.56,8.994285714
21-06-22,1133.57,1131.57,1138.81,1130.35,8.46,9.025
21-06-23,1135.85,1133.73,1138.63,1131.17,7.46,8.846428571
21-06-24,1130.78,1136.03,1138.69,1129.97,8.72,8.702142857
21-06-25,1127.12,1131.87,1133.1,1124.1,9,8.955
21-06-28,1130.04,1127.34,1132.68,1126.58,6.1,8.689285714
21-06-29,1131.62,1130.21,1134.77,1127.65,7.12,8.717857143
21-06-30,1130.48,1131.8,1132.89,1125.59,7.3,8.715714286
21-07-01,1134.33,1130.63,1135.98,1128.28,7.7,8.602142857
21-07-02,1130.53,1134.51,1138.6,1129.6,9,8.845
21-07-05,1130.42,1130.77,1132.72,1128.13,4.59,8.940714286
21-07-06,1136.75,1130.59,1139.97,1129.03,10.94,8.191428571
21-07-07,1141.5,1136.93,1144.27,1135.03,9.24,8.162142857
21-07-08,1146.59,1141.65,1151.69,1139.55,12.14,8.309285714
21-07-09,1143.73,1146.81,1150.52,1143.18,7.34,8.222142857
21-07-12,1146.85,1145.31,1150.06,1144.18,6.33,8.07
21-07-13,1149.94,1147.18,1152.9,1141.21,11.69,8.372142857
21-07-14,1144.22,1150.11,1152.27,1142.63,9.64,8.437857143
21-07-15,1141.59,1144.36,1148.31,1138.93,9.38,8.465
21-07-16,1141.51,1141.77,1144.28,1137.99,6.29,8.478571429
21-07-19,1150.83,1142.5,1155.59,1141.85,14.08,8.975714286
21-07-20,1147.47,1151.92,1153.07,1146.55,6.52,8.92
21-07-21,1149.31,1148.46,1156.44,1147.07,9.37,9.039285714
21-07-22,1150.55,1149.48,1153.12,1146.85,6.27,8.844285714
21-07-23,1151.52,1150.86,1155.41,1147.15,8.26,9.106428571
21-07-26,1152.54,1152.12,1157.24,1151.26,5.98,8.752142857
21-07-27,1154.25,1152.71,1158.65,1148.86,9.79,8.791428571
21-07-28,1150.27,1154.44,1159.96,1149.24,10.72,8.69
21-07-29,1143.12,1150.44,1152.12,1140.48,11.64,8.997142857
21-07-30,1151.41,1143.3,1154.78,1142.04,12.74,9.455
21-08-02,1150.18,1151.9,1154.6,1148.52,6.08,9.054285714
21-08-03,1148.44,1150.35,1153.91,1146.59,7.32,8.888571429
21-08-04,1144.76,1148.63,1149.72,1140.02,9.7,8.911428571
21-08-05,1142.59,1144.94,1146.84,1140.62,6.22,8.906428571
21-08-06,1144.93,1142.94,1148.29,1140.15,8.14,8.482142857
21-08-09,1146.89,1145.93,1148.86,1142.35,6.51,8.481428571
21-08-10,1152.7,1147.07,1154.29,1145.78,8.51,8.42
21-08-11,1153.98,1152.9,1159.69,1151.89,7.8,8.529285714
21-08-12,1162.98,1154.16,1166.15,1152.96,13.19,8.881428571
21-08-13,1161.37,1163.16,1171.15,1160.38,10.77,9.223571429
21-08-16,1165.28,1162.37,1168.81,1161.46,7.44,9.055714286
21-08-17,1177.3,1165.45,1179.8,1164.6,15.2,9.375714286
21-08-18,1170.03,1177.44,1179.94,1166.89,13.05,9.476428571
21-08-19,1176.28,1170.28,1178.4,1169.66,8.74,9.190714286
21-08-20,1175.15,1176.46,1184.85,1171.21,13.64,9.730714286
21-08-23,1169.36,1175.24,1177.56,1167.43,10.13,9.931428571
21-08-24,1163.65,1169.06,1171.57,1163.1,8.47,9.843571429
21-08-25,1163.87,1164.02,1169.37,1162.92,6.45,9.86
21-08-26,1170.53,1164.05,1172.01,1162.97,9.04,9.924285714
21-08-27,1161.23,1170.71,1174.77,1160.89,13.88,10.45071429
21-08-30,1164.34,1162.33,1167.71,1161.88,6.48,10.30571429
21-08-31,1158.73,1166.07,1167.43,1155.18,12.25,10.62357143
21-09-01,1155.47,1158.95,1160.64,1154.54,6.1,10.11714286
21-09-02,1158.05,1156.08,1162.44,1155.05,7.39,9.875714286
21-09-03,1154.28,1158.23,1159.71,1152.54,7.17,9.856428571
21-09-06,1157.04,1155.75,1159.97,1154.53,5.69,9.177142857
21-09-07,1161.98,1157.33,1166.02,1155,11.02,9.032142857
21-09-08,1166.54,1162.16,1168.83,1161.15,7.68,8.956428571
21-09-09,1169.64,1167.14,1172.21,1166.05,6.16,8.422142857
21-09-10,1170.23,1169.81,1174.13,1164.83,9.3,8.362857143
21-09-13,1172.83,1170.38,1177.53,1170.02,7.51,8.294285714
21-09-14,1172.23,1173.44,1175.2,1166.38,8.82,8.463571429
21-09-15,1166.23,1172.41,1174.7,1164.77,9.93,8.527142857
21-09-16,1175.19,1166.39,1176.94,1165.2,11.74,8.374285714
21-09-17,1180.69,1175.36,1182.81,1174.23,8.58,8.524285714
21-09-20,1185.67,1181.56,1192.41,1181.47,11.72,8.486428571
21-09-21,1183.96,1187.39,1188.61,1182.66,5.95,8.475714286
21-09-22,1181.75,1184.41,1185.53,1178.25,7.28,8.467857143
21-09-23,1174.63,1181.99,1186.62,1170.36,16.26,9.117142857
21-09-24,1179.68,1174.83,1182.05,1171.81,10.24,9.442142857
21-09-27,1177.94,1179.95,1182.46,1173.98,8.48,9.260714286
21-09-28,1187.16,1177.09,1188.67,1176.37,12.3,9.590714286
21-09-29,1187.11,1188.04,1189.26,1181.2,8.06,9.726428571
21-09-30,1184.23,1187.93,1189.38,1180.22,9.16,9.716428571
21-10-01,1180.35,1184.78,1189.05,1179.2,9.85,9.883571429
21-10-04,1184.12,1179.9,1185.97,1178.41,7.56,9.793571429
21-10-05,1186.48,1184.45,1189.12,1183.83,5.29,9.462142857
21-10-06,1190.21,1186.69,1197.94,1185.9,12.04,9.483571429
21-10-07,1190.88,1190.74,1192.08,1188.15,3.93,9.151428571
21-10-08,1196.79,1191.33,1197.61,1190.35,7.26,8.832857143
21-10-11,1195.3,1196.54,1196.99,1191.89,5.1,8.772142857
21-10-12,1197.29,1195.75,1200.9,1195.38,5.6,8.652142857
21-10-13,1186.18,1197.92,1199.49,1186.3,13.19,8.432857143
21-10-14,1181.69,1186.87,1190.94,1181.76,9.18,8.357142857
21-10-15,1182.07,1182.23,1185.31,1180.87,4.44,8.068571429
21-10-18,1185.47,1182.49,1188.85,1182.39,6.78,7.674285714
21-10-19,1175.13,1185.89,1186.04,1173.73,12.31,7.977857143
21-10-20,1175.63,1175.61,1179.26,1172.01,7.25,7.841428571
21-10-21,1177.78,1175.81,1180.03,1172.98,7.05,7.641428571
21-10-22,1177.48,1177.86,1181.7,1173.64,8.06,7.677142857
21-10-25,1168.02,1177.44,1178.96,1166.96,12,8.156428571
21-10-26,1167.95,1168.13,1170.47,1163.75,6.72,7.776428571
21-10-27,1172.05,1168.06,1174.09,1165.45,8.64,8.112857143
21-10-28,1168.44,1172.17,1174.7,1166.06,8.64,8.211428571
21-10-29,1174.47,1168.45,1177.07,1167.81,9.26,8.508571429
21-11-01,1177.45,1174.61,1179.89,1173.28,6.61,8.580714286
21-11-02,1178.48,1177.56,1179.91,1174.03,5.88,8.058571429
21-11-03,1178.78,1178.59,1185.94,1177.99,7.95,7.970714286
21-11-04,1185.75,1178.89,1188.81,1176.94,11.87,8.501428571
21-11-05,1181.05,1185.97,1188.43,1181.21,7.22,8.532857143
21-11-08,1180.84,1181.51,1186.74,1178.93,7.81,8.211428571
21-11-09,1178.4,1180.95,1182.1,1173.36,8.74,8.317857143
21-11-10,1185.04,1178.51,1186.15,1176.82,9.33,8.480714286
21-11-11,1182.39,1185.15,1187.3,1178.17,9.13,8.557142857
21-11-12,1179.2,1182.45,1184.1,1176.31,7.79,8.256428571
21-11-15,1183.42,1179.94,1184.78,1177.17,7.61,8.32
21-11-16,1183.85,1183.56,1185.8,1175.3,10.5,8.452857143
21-11-17,1180.46,1183.99,1186.96,1179.58,7.38,8.362857143
21-11-18,1182.37,1180.58,1187.76,1177.92,9.84,8.404285714
21-11-19,1187.1,1182.99,1187.67,1181.16,6.51,8.397142857
21-11-22,1190.08,1188.77,1191.36,1184.81,6.55,8.445
21-11-23,1189.08,1190.57,1192.47,1187.06,5.41,8.263571429
21-11-24,1188.77,1190.07,1190.79,1185.02,5.77,7.827857143
21-11-25,1190.16,1188.81,1192.28,1187.82,4.46,7.630714286
21-11-26,1194.43,1190.24,1196.26,1189.74,6.52,7.538571429
21-11-29,1190.69,1195.8,1196,1189.9,6.1,7.35
21-11-30,1182.71,1190.96,1191.73,1182.26,9.47,7.36
21-12-01,1176.93,1182.84,1185.49,1173.33,12.16,7.576428571
21-12-02,1176.74,1177.06,1179.35,1173.32,6.03,7.450714286
21-12-03,1180,1176.85,1183.63,1175.83,7.8,7.464285714
21-12-06,1180.54,1184.85,1186.49,1179.7,6.79,7.199285714
21-12-07,1176.73,1180.66,1184.03,1176.56,7.47,7.205714286
21-12-08,1175.19,1176.85,1179.31,1175.12,4.19,6.802142857
21-12-09,1178.15,1173.42,1179.37,1172.62,6.75,6.819285714
21-12-10,1180.86,1178.27,1182.82,1176.4,6.42,6.81
21-12-13,1184.91,1180.96,1186.16,1177.03,9.13,7.075714286
21-12-14,1185.19,1185.1,1186.38,1180.97,5.41,7.05
21-12-15,1184.57,1185.24,1190.22,1183.93,6.29,7.180714286
21-12-16,1186.29,1185.41,1188.86,1181.63,7.23,7.231428571
21-12-17,1187.7,1186.39,1188.63,1180.03,8.6,7.41
21-12-20,1189.53,1188.1,1192.67,1186.79,5.88,7.153571429
21-12-21,1190.67,1189.95,1193.81,1189,4.81,6.628571429
21-12-22,1190.21,1190.43,1192.98,1189.5,3.48,6.446428571
21-12-23,1185.55,1187.94,1190.76,1184.89,5.87,6.308571429
21-12-24,1185.99,1185.64,1188.4,1184.69,3.71,6.088571429
21-12-27,1185.61,1187.1,1188.63,1185.02,3.61,5.812857143
21-12-28,1188.09,1186.59,1189.39,1185.31,4.08,5.805
21-12-29,1184.7,1188.14,1188.59,1184.06,4.53,5.646428571
21-12-30,1189.36,1184.79,1190.72,1182.75,7.97,5.757142857
21-12-31,1187.96,1190.22,1191.31,1186.67,4.64,5.436428571
22-01-03,1193,1189.8,1193.86,1187.55,6.31,5.500714286
22-01-04,1197.49,1194.77,1199.49,1192.75,6.74,5.532857143
22-01-05,1198.2,1197.54,1200.18,1195.91,4.27,5.321428571
22-01-06,1204.95,1200.65,1207.11,1197.2,9.91,5.415
22-01-07,1197.63,1205.03,1205.78,1197.32,8.46,5.599285714
22-01-10,1198.04,1198.2,1201.81,1195.95,5.86,5.674285714
22-01-11,1192.31,1198.14,1198.6,1192.3,6.3,5.875714286
22-01-12,1185.87,1190.55,1193.2,1185.11,8.09,6.034285714
22-01-13,1186.11,1185.96,1189.94,1184.04,5.9,6.190714286
22-01-14,1190.07,1186.77,1192.42,1185.67,6.75,6.415
22-01-17,1189.99,1190.55,1194.13,1189.49,4.64,6.455
22-01-18,1192.69,1190.98,1194.33,1185.93,8.4,6.731428571
22-01-19,1188.13,1193.03,1193.94,1186.66,7.28,6.682142857
22-01-20,1192.42,1188.21,1193.88,1187.19,6.69,6.828571429
22-01-21,1192.51,1192.49,1195.05,1190.14,4.91,6.728571429
22-01-24,1195.59,1193.3,1197.9,1192.49,5.41,6.633571429
22-01-25,1196.35,1195.69,1199.93,1195.17,4.76,6.668571429
22-01-26,1197.03,1196.35,1198.51,1194.29,4.22,6.262142857
22-01-27,1203.77,1200.75,1205.79,1200.15,8.76,6.283571429
22-01-28,1209.56,1203.82,1213.86,1203.65,10.21,6.594285714
22-01-31,1204.63,1209.71,1212.92,1204.2,8.72,6.767142857
22-02-01,1202.31,1204.75,1208.01,1201.61,6.4,6.646428571
22-02-02,1199.46,1202.47,1204.41,1198.82,5.59,6.624285714
22-02-03,1199.47,1200.36,1207.19,1198.68,8.51,6.75
22-02-04,1198.25,1200.65,1202.05,1196.81,5.24,6.792857143
22-02-07,1196.87,1199,1201.09,1196.72,4.37,6.505
22-02-08,1196.35,1196.92,1200.38,1196.21,4.17,6.282857143
22-02-09,1194.05,1196.4,1197.47,1193.02,4.45,6.122857143
22-02-10,1199.83,1194.17,1200.65,1193.42,7.23,6.288571429
22-02-11,1199.48,1200.1,1201.87,1193.23,8.64,6.519285714
22-02-14,1197.32,1200.1,1200.17,1193.93,6.24,6.625
22-02-15,1196.76,1197.44,1200.59,1195.29,5.3,6.702142857
22-02-16,1196.53,1196.86,1199.57,1195.22,4.35,6.387142857
22-02-17,1198.63,1196.69,1200.06,1194.44,5.62,6.059285714
22-02-18,1195.59,1198.76,1199.55,1192.95,6.6,5.907857143
22-02-21,1193.68,1198.3,1199.72,1189.73,9.99,6.164285714
22-02-22,1191.9,1194.6,1196.6,1190.74,5.86,6.183571429
22-02-23,1192.44,1193.03,1194.34,1189.64,4.7,5.911428571
22-02-24,1206.05,1192.6,1211.47,1191.93,19.54,6.932857143
22-02-25,1197.57,1206.11,1206.9,1197.73,9.17,7.275714286
22-02-28,1200.12,1207.65,1208.97,1200.76,11.4,7.792142857
22-03-01,1205.32,1201.18,1206.37,1197.68,8.69,8.095
22-03-02,1203.16,1205.42,1208.99,1201.98,7.01,8.079285714
22-03-03,1205.54,1203.26,1209.29,1202.18,7.11,7.97
22-03-04,1217.45,1206.93,1219.78,1206.35,14.24,8.541428571
22-03-07,1232.14,1221.65,1233.47,1220.05,16.02,9.307142857
22-03-08,1233.53,1232.26,1238.83,1227.97,10.86,9.772142857
22-03-09,1223.13,1233.64,1235.94,1222.75,13.19,10.31285714
22-03-10,1228.83,1223.24,1231.74,1223.13,8.61,10.45642857
22-03-11,1237.08,1228.77,1237.91,1228.23,9.68,10.43428571
22-03-14,1240.64,1237.1,1242.82,1234.68,8.14,10.59714286
22-03-15,1240.62,1242.01,1247.35,1239.3,8.05,10.83642857
22-03-16,1225.35,1241.66,1244.06,1225.32,18.74,10.77928571
22-03-17,1209.89,1224.95,1227.7,1207.83,19.87,11.54357143
22-03-18,1211.15,1210.58,1217.27,1207.01,10.26,11.46214286
22-03-21,1217.55,1211.55,1219.23,1210.39,8.84,11.47285714
22-03-22,1215.07,1218.82,1223.92,1214.51,9.41,11.64428571
22-03-23,1218.62,1215.19,1219.8,1210.91,8.89,11.77142857
22-03-24,1219.58,1219.02,1225.05,1217.1,7.95,11.32214286
22-03-25,1225.08,1221,1226.31,1216.35,9.96,10.88928571
22-03-28,1223.65,1224.4,1227.86,1222.27,5.59,10.51285714
22-03-29,1207.35,1223.82,1225.12,1207.27,17.85,10.84571429
22-03-30,1210.31,1208.19,1213.22,1207.06,6.16,10.67071429
22-03-31,1214.17,1210.51,1215.47,1208.16,7.31,10.50142857
22-04-01,1219.73,1215.13,1220.27,1214.39,6.1,10.35571429
22-04-04,1213.75,1219.8,1220.26,1213.54,6.72,10.26071429
22-04-05,1218.22,1214.49,1220.31,1210.31,10,9.636428571
22-04-06,1217.48,1218.82,1221.95,1215.85,6.1,8.652857143
22-04-07,1222.55,1217.6,1223.95,1216.37,7.58,8.461428571
22-04-08,1229.19,1222.76,1230.86,1221.29,9.57,8.513571429
22-04-11,1234.32,1228.95,1236.81,1228.94,7.87,8.403571429
22-04-12,1228.08,1234.9,1238.63,1224.52,14.11,8.776428571
22-04-13,1223.23,1228.15,1231.69,1221.71,9.98,8.921428571
22-04-14,1230.15,1223.36,1231.57,1222.61,8.96,8.85
22-04-15,1228.19,1230.26,1232.11,1227.01,5.1,8.815
22-04-18,1235.22,1229.08,1235.81,1228.88,7.62,8.084285714
22-04-19,1239.53,1235.45,1242.67,1233.17,9.5,8.322857143
22-04-20,1233.66,1239.81,1241.04,1232.37,8.67,8.42
22-04-21,1242.81,1233.98,1244.95,1233.85,11.29,8.790714286
22-04-22,1244.11,1242.34,1247.45,1238.45,9,8.953571429
22-04-25,1250.1,1244.4,1253.77,1243.63,10.14,8.963571429
22-04-26,1260.67,1250.22,1261.43,1245.14,16.29,9.691428571
22-04-27,1266.27,1260.98,1270.72,1260.89,10.05,9.867857143
22-04-28,1272.11,1266.4,1276.56,1264.27,12.29,10.06214286
22-04-29,1263.03,1272.38,1273.06,1254.87,18.19,10.79928571
22-05-02,1267.51,1264.65,1270.75,1262.88,7.87,10.35357143
22-05-03,1260.35,1267.64,1268.77,1260.11,8.66,10.25928571
22-05-04,1251.51,1260.95,1267.49,1250.61,16.88,10.825
22-05-05,1269.2,1251.53,1274.36,1250.42,23.94,12.17071429
22-05-06,1269.99,1269.56,1276.46,1266.98,9.48,12.30357143
22-05-09,1274.28,1270.41,1278.35,1270.29,8.36,12.22214286
22-05-10,1276.48,1275.01,1278.94,1271.37,7.57,12.14357143
22-05-11,1279.03,1276.63,1280.55,1272.35,8.2,11.92285714
22-05-12,1290.72,1279.14,1293.14,1278.47,14.67,12.32785714
22-05-13,1278.45,1290.87,1291.74,1278.22,13.52,12.56928571
22-05-16,1280.38,1278.56,1286.56,1276.16,10.4,12.14857143
22-05-17,1266.5,1280.64,1281.44,1264.02,17.42,12.675
22-05-18,1275.33,1266.8,1276.98,1263.93,13.05,12.72928571
22-05-19,1262.61,1276,1280.63,1261.35,19.28,12.80714286
22-05-20,1273.59,1263.99,1277.18,1263.05,14.57,13.28571429
22-05-23,1257.88,1270.41,1272.97,1258.36,15.23,13.755
22-05-24,1261.03,1258.87,1266.72,1258.21,8.84,13.18071429
22-05-25,1266.41,1261.14,1271.95,1260.06,11.89,12.32
22-05-26,1260.02,1266.55,1269.73,1259.34,10.39,12.385
22-05-27,1251.99,1260.29,1262.13,1248.85,13.28,12.73642857
22-05-30,1234.85,1251.1,1253.58,1234.55,19.03,13.555
22-05-31,1242.26,1235.6,1243.89,1234.72,9.17,13.62428571
22-06-01,1246.89,1242.48,1248.58,1240.29,8.29,13.16857143
22-06-02,1240.32,1247.23,1255.04,1240.67,14.37,13.22928571
22-06-03,1250.58,1241.14,1252.23,1238.47,13.76,13.46928571
22-06-06,1254.45,1251.86,1255.7,1248.23,7.47,12.75857143
22-06-07,1254.36,1254.8,1260.15,1253.06,7.09,12.33285714
22-06-08,1256.81,1254.85,1258.92,1253.17,5.75,11.36642857
22-06-09,1264.04,1257.22,1267.19,1253.34,13.85,11.315
22-06-10,1279.32,1264.38,1283.85,1263.14,20.71,11.70642857
22-06-13,1291.68,1279.43,1294.37,1278.88,15.49,12.18142857
22-06-14,1289.57,1291.88,1292.65,1285.25,7.4,11.86071429
22-06-15,1277.9,1289.92,1293.72,1278.02,15.7,12.24
22-06-16,1288.23,1278.38,1296.59,1277.06,19.53,12.68642857
22-06-17,1291.26,1288.57,1296.67,1282.29,14.38,12.35428571
22-06-20,1291.54,1291.5,1296.26,1287.91,8.35,12.29571429
22-06-21,1291.72,1292.55,1294.29,1287.34,6.95,12.2
22-06-22,1297.58,1292.08,1305.26,1290.69,14.57,12.21428571
22-06-23,1299.81,1297.69,1307.92,1296.32,11.6,12.06
22-06-24,1288.89,1300.14,1302.32,1288.11,14.21,12.54142857
22-06-27,1286.31,1289.29,1293.35,1280.58,12.77,12.94714286
22-06-28,1292.06,1286.63,1293,1281.46,11.54,13.36071429
22-06-29,1301.9,1292.43,1302.8,1289.34,13.46,13.33285714
22-06-30,1287.51,1301.96,1304.24,1287.35,16.89,13.06
22-07-01,1298.67,1288.05,1302.81,1287.8,15.3,13.04642857
22-07-04,1295.87,1298.92,1300.16,1292.05,8.11,13.09714286
22-07-05,1308.95,1296.06,1315.57,1293.68,21.89,13.53928571
22-07-06,1304.79,1309.09,1311.02,1302.81,8.21,12.73071429
22-07-07,1297.62,1305.14,1308.74,1295.9,12.84,12.62071429
22-07-08,1294.68,1297.97,1303.68,1292.29,11.39,12.83785714
22-07-11,1310.81,1294.79,1314.39,1294.62,19.77,13.75357143
22-07-12,1305.21,1311.16,1316.73,1305.01,11.72,13.55
22-07-13,1304.73,1306.45,1310.83,1301.75,9.08,13.37
22-07-14,1316.41,1305.1,1327.31,1303.55,23.76,14.05214286
22-07-15,1317.74,1317.57,1329.58,1316.6,13.17,14.08071429
22-07-18,1318.3,1319.15,1322.13,1312.97,9.16,13.91071429
22-07-19,1305.12,1319.2,1319.99,1305.38,14.61,13.99285714
22-07-20,1313.1,1304.38,1314.22,1302.35,11.87,13.63428571
22-07-21,1306.16,1313.7,1316.88,1306.55,10.33,13.27928571
22-07-22,1310.01,1306.66,1316.22,1306.22,10.06,13.41857143
22-07-25,1311.12,1310.6,1313.97,1307.33,6.64,12.32928571
22-07-26,1310.1,1311.47,1313.6,1306.75,6.85,12.23214286
22-07-27,1306.08,1311.03,1316.68,1305.74,10.94,12.09642857
22-07-28,1295.47,1306.37,1309.68,1296.07,13.61,12.255
22-07-29,1302.97,1296.07,1309.4,1295.55,13.93,11.83785714
22-08-01,1307.33,1303.29,1309.99,1301.09,8.9,11.63642857
22-08-02,1311.82,1307.74,1313.33,1304.2,9.13,11.64
22-08-03,1307.82,1315.3,1315.98,1306.4,9.58,10.62714286
22-08-04,1302.41,1308.23,1312.49,1301.85,10.64,10.44642857
22-08-05,1302.24,1302.81,1305.85,1294.54,11.31,10.6
22-08-08,1299.1,1303.7,1307.48,1298.7,8.78,10.18357143
22-08-09,1306.14,1300.11,1308.74,1299.39,9.64,10.02428571
22-08-10,1297.33,1307.52,1312.06,1297.49,14.57,10.32714286
22-08-11,1305.14,1297.54,1305.68,1296.48,9.2,10.26571429
22-08-12,1301.31,1307.05,1307.62,1299.34,8.28,10.38285714
22-08-15,1310.52,1302.34,1312.6,1302.16,11.29,10.7
22-08-16,1311.04,1313.55,1314.21,1307.77,6.44,10.37857143
22-08-17,1314.88,1311.4,1317.88,1308.2,9.68,10.09785714
22-08-18,1326.84,1315.25,1329.42,1312.55,16.87,10.30785714
22-08-19,1335.61,1327.23,1338.42,1324.15,14.27,10.69142857
22-08-22,1343.43,1335.78,1346.82,1334.29,12.53,10.93428571
22-08-23,1339.17,1343.73,1347.01,1334.64,12.37,11.13357143
22-08-24,1340.6,1339.54,1344.81,1337.75,7.06,10.87785714
22-08-25,1334.32,1340.96,1342.42,1333.36,9.06,10.71714286
22-08-26,1341.81,1334.96,1342.83,1328.26,14.57,11.13071429
22-08-29,1345.62,1342.18,1352.3,1342.03,10.49,11.19142857
22-08-30,1349.77,1345.98,1353.54,1344.46,9.08,10.79928571
22-08-31,1341.19,1350.55,1352.58,1337.6,14.98,11.21214286
22-09-01,1355.82,1341.76,1359.49,1341.1,18.39,11.93428571
22-09-02,1361.15,1356.79,1364.85,1352.23,12.62,12.02928571
22-09-05,1369.39,1363.68,1374.99,1361.31,13.84,12.55785714
22-09-06,1377.07,1370.53,1381.1,1364.35,16.75,13.06285714
22-09-07,1377.11,1378.52,1391.28,1377.12,14.21,12.87285714
22-09-08,1384.55,1375.39,1387.74,1374.41,13.33,12.80571429
22-09-09,1379.77,1384.88,1385.6,1374.16,11.44,12.72785714
22-09-12,1374.63,1380.06,1384.24,1373.04,11.2,12.64428571
22-09-13,1394.68,1375.25,1395.26,1371.4,23.86,13.84428571
22-09-14,1391.01,1392.37,1396.25,1388.88,7.37,13.72357143
22-09-15,1398.41,1391.44,1400.38,1389.99,10.39,13.425
22-09-16,1384.77,1397.7,1399.31,1383.2,16.11,13.82642857
22-09-19,1390.08,1385.95,1396.46,1384,12.46,14.06785714
22-09-20,1392.5,1390.33,1395.27,1387.26,8.01,13.57
22-09-21,1397.71,1392.91,1398.85,1388.4,10.45,13.00285714
22-09-22,1404.23,1397.72,1414.85,1396.35,18.5,13.42285714
22-09-23,1421.34,1407.07,1423.8,1404.04,19.76,13.84571429
22-09-26,1430.19,1421.3,1435.2,1419.35,15.85,13.78142857
22-09-27,1426.32,1430.61,1432.1,1419.02,13.08,13.70071429
22-09-28,1424.48,1426.67,1445.64,1424.8,20.84,14.23714286
22-09-29,1429.99,1424.2,1442.17,1422.56,19.61,14.82071429
22-09-30,1439.96,1430.42,1442.33,1427.97,14.36,15.04642857
22-10-03,1433.45,1440.23,1445.78,1433.78,12,14.19928571
22-10-04,1415.53,1432.57,1436.61,1416.11,20.5,15.13714286
22-10-05,1415.63,1416.34,1424.23,1410.05,14.18,15.40785714
22-10-06,1408.31,1417.05,1417.62,1397.24,20.38,15.71285714
22-10-07,1424.94,1408.62,1425.56,1402,23.56,16.50571429
22-10-10,1427.61,1421.95,1430.77,1421.95,8.82,16.56357143
22-10-11,1431.42,1428.97,1438.69,1427.03,11.66,16.65
22-10-12,1424.49,1431.81,1436.55,1422.37,14.18,16.34142857
22-10-13,1430.69,1424.9,1444.09,1423.47,20.62,16.40285714
22-10-14,1440.44,1430.6,1442.39,1424.85,17.54,16.52357143
22-10-17,1430.71,1442.45,1442.7,1429.24,13.46,16.55071429
22-10-18,1425.02,1431.69,1432.51,1418.36,14.15,16.07285714
22-10-19,1434.88,1425.33,1437.07,1413.44,23.63,16.36
22-10-20,1430.2,1435.17,1436.85,1422.35,14.5,16.37
22-10-21,1428.32,1430.58,1444.59,1428.51,16.08,16.66142857
22-10-24,1444.63,1431.05,1446.62,1428.58,18.3,16.50428571
22-10-25,1426.92,1444.94,1445.36,1424.58,20.78,16.97571429
22-10-26,1412.52,1427.26,1432.6,1410.44,22.16,17.10285714
22-10-27,1421.23,1412.85,1425.51,1411.95,13.56,16.38857143
22-10-28,1421.66,1421.67,1428.1,1414.22,13.88,16.75
22-10-31,1425.83,1422.05,1429.69,1418.31,11.38,16.73
22-11-01,1416.73,1427.03,1429.59,1411.77,17.82,16.99
22-11-02,1412.45,1417.08,1421.4,1409.67,11.73,16.355
22-11-03,1423.7,1424.95,1428.78,1417.83,16.33,16.26857143
22-11-04,1403.29,1424.06,1429.45,1401.05,28.4,17.33571429
22-11-07,1392.44,1411.8,1413.26,1390.2,23.06,17.97214286
22-11-08,1375.03,1393.43,1395.3,1370.43,24.87,18.06071429
22-11-09,1371.13,1375.04,1380.48,1357.22,23.26,18.68642857
22-11-10,1349.82,1371.3,1383.94,1349.41,34.53,20.00428571
22-11-11,1313.69,1350.14,1350.69,1313.2,37.49,21.375
22-11-14,1323.87,1319.5,1332.06,1309.2,22.86,21.52357143
22-11-15,1316.21,1324.27,1327.51,1308.13,19.38,21.325
22-11-16,1336.65,1316.56,1339.09,1315.17,23.92,22.065
22-11-17,1342.65,1337,1352.56,1330.45,22.11,22.65285714
22-11-18,1339.71,1342.99,1344.94,1335.85,9.09,22.48928571
22-11-21,1359.3,1341.55,1362.64,1341.44,22.93,22.85428571
22-11-22,1352.65,1359.61,1362.97,1351.01,11.96,22.87071429
22-11-23,1336.85,1353.01,1355.86,1335.96,19.9,23.12571429
22-11-24,1326.69,1337.09,1340.75,1324.12,16.63,22.285
22-11-25,1334.48,1328.03,1336.78,1319.27,17.51,21.88857143
22-11-28,1339.75,1335.95,1342.87,1332.43,10.44,20.85785714
22-11-29,1325.36,1341.53,1342.89,1322.84,20.05,20.62857143
22-11-30,1301.65,1325.67,1330.01,1300.6,29.41,20.26285714
22-12-01,1304.23,1301.72,1308.23,1295.15,13.08,18.51928571
22-12-02,1297.89,1304.56,1308.34,1295.47,12.87,17.80571429
22-12-05,1305.49,1299.17,1307.05,1289.4,17.65,17.68214286
22-12-06,1319.79,1305.73,1323.12,1301.45,21.67,17.52142857
22-12-07,1314.38,1320.13,1326.55,1312.56,13.99,16.94142857
22-12-08,1315.83,1314.77,1323.95,1314.48,9.57,16.97571429
22-12-09,1303.87,1316.82,1318.23,1298.73,19.5,16.73071429
22-12-12,1306.08,1303.95,1314.15,1303.26,10.89,16.65428571
22-12-13,1289.13,1307.07,1309.66,1288.79,20.87,16.72357143
22-12-14,1295.42,1289.57,1302.55,1288.77,13.78,16.52
22-12-15,1318.51,1295.91,1320.61,1293.61,27,17.19785714
22-12-16,1309.47,1319.51,1320.05,1304.73,15.32,17.54642857
22-12-19,1301.29,1311.55,1311.58,1296.85,14.73,17.16642857
22-12-20,1283.71,1301.65,1305.45,1281.52,23.93,16.775
22-12-21,1279.21,1284.06,1289.91,1279.91,10,16.555
22-12-22,1291.64,1280.37,1292.51,1272.36,20.15,17.075
22-12-23,1279.55,1291.94,1292.57,1278.05,14.52,16.85142857
22-12-26,1273.91,1279.8,1282.2,1273.89,8.31,15.89714286
22-12-27,1271.79,1274.91,1275.63,1264.85,10.78,15.66785714
22-12-28,1274.37,1272.25,1276.66,1265.57,11.09,15.77642857
22-12-29,1260.85,1274.71,1275.32,1259.19,16.13,15.53571429
22-12-30,1260.92,1261.24,1265.34,1253.26,12.08,15.62071429
23-01-02,1269.03,1261.95,1274.86,1260.65,14.21,15.145
23-01-03,1279.1,1269.93,1281.23,1264.35,16.88,15.36642857
23-01-04,1270.98,1279.59,1280.77,1269.04,11.73,14.27571429
23-01-05,1274.26,1271.39,1279.14,1267.05,12.09,14.045
23-01-06,1253.5,1274.58,1275.33,1251.84,23.49,14.67071429
23-01-09,1239.28,1254.5,1254.7,1234.54,20.16,14.40142857
23-01-10,1240.8,1239.69,1248.82,1235.71,13.11,14.62357143
23-01-11,1242.5,1241.22,1250.48,1238.1,12.38,14.06857143
23-01-12,1239.12,1242.41,1247.73,1234.95,12.78,13.94428571
23-01-13,1237.26,1239.51,1246.42,1233.79,12.63,14.25285714
23-01-16,1241.61,1237.1,1242.73,1231.51,11.22,14.28428571
23-01-17,1237.34,1241.98,1242.59,1235.77,6.82,13.97928571
23-01-18,1237.69,1237.36,1247.12,1225.56,21.56,14.36714286
23-01-19,1232.21,1238.11,1242.45,1231.53,10.92,14.28428571
23-01-20,1228.86,1232.63,1238.44,1229.53,8.91,13.90571429
23-01-23,1229.97,1230.35,1233.78,1224.96,8.82,13.33
23-01-24,1232.57,1230.38,1237.99,1228.9,9.09,13.14142857
23-01-25,1232.57,1232.98,1237.88,1230.28,7.6,12.82071429
23-01-26,1231.84,1232.97,1235.69,1229.21,6.48,11.60571429
23-01-27,1229.62,1232.26,1236.55,1227.22,9.33,10.83214286
23-01-30,1231.46,1230.2,1232.61,1226.31,6.3,10.34571429
23-01-31,1233.3,1231.88,1239.12,1227.83,11.29,10.26785714
23-02-01,1222.28,1233.72,1234.22,1220.35,13.87,10.34571429
23-02-02,1224.78,1222.26,1226.37,1215.83,10.54,10.19642857
23-02-03,1247.46,1225.19,1250.36,1224.08,26.28,11.27214286
23-02-06,1260.25,1247.35,1263.96,1243.92,20.04,12.21642857
23-02-07,1255.68,1261.47,1264.61,1252.26,12.35,11.55857143
23-02-08,1260.46,1255.81,1262.96,1251.4,11.56,11.60428571
23-02-09,1264.44,1260.87,1266.51,1254.76,11.75,11.80714286
23-02-10,1267.45,1264.87,1269.71,1259.44,10.27,11.91071429
23-02-13,1272.89,1266.25,1280.43,1266.25,14.18,12.27428571
23-02-14,1272.53,1273.31,1275.33,1261.58,13.75,12.71357143
23-02-15,1283.54,1272.59,1289.01,1272.04,16.97,13.46285714
23-02-16,1289.51,1283.97,1295.56,1278.79,16.77,13.99428571
23-02-17,1295.87,1289.94,1303.93,1289.52,14.42,14.57428571
23-02-20,1296.04,1297.55,1299.74,1292.94,6.8,14.25357143
23-02-21,1305.75,1296.42,1310.2,1293.26,16.94,14.47285714
23-02-22,1302.65,1306.16,1307.57,1298.52,9.05,14.36642857
23-02-23,1297.89,1303.05,1306.55,1293.32,13.23,13.43428571
23-02-24,1314.45,1298.03,1318.57,1296.29,22.28,13.59428571
23-02-27,1317.4,1314.55,1325.79,1311.97,13.82,13.69928571
23-02-28,1323.02,1318.4,1327.21,1314.42,12.79,13.78714286
23-03-01,1305.41,1323.44,1324.52,1298.59,25.93,14.8
23-03-02,1310.97,1305.83,1317.68,1303.84,13.84,15.055
23-03-03,1295.73,1311.39,1312.18,1294.13,18.05,15.33142857
23-03-06,1296.86,1294.1,1301.71,1293.28,8.43,14.95142857
23-03-07,1318.29,1297.85,1320.19,1296.6,23.59,15.42428571
23-03-08,1316.38,1318.31,1324.56,1312.56,12,15.08357143
23-03-09,1325.51,1316.77,1327.76,1314.76,13,14.98214286
23-03-10,1320.24,1325.82,1329.78,1309.77,20.01,15.92571429
23-03-13,1296.58,1319.1,1320.64,1296.14,24.5,16.46571429
23-03-14,1304.55,1296.94,1314.24,1296.23,18.01,17.10571429
23-03-15,1313.04,1304.94,1323.29,1295.9,27.39,18.11714286
23-03-16,1300.85,1313.38,1317.07,1301.3,15.77,17.65214286
23-03-17,1308.37,1301.84,1309.71,1298.24,11.47,17.48428571
23-03-20,1304.36,1309.1,1314.03,1299.35,14.68,17.61928571
23-03-21,1303.42,1303.87,1311.59,1301.99,9.6,16.45285714
23-03-22,1297.85,1303.82,1310.36,1288.56,21.8,17.02142857
23-03-23,1286.23,1297.58,1300.3,1275.81,24.49,17.48142857
23-03-24,1294.66,1286.67,1307.96,1283.16,24.8,18.65071429
23-03-27,1297.92,1295.24,1303.91,1294.14,9.77,17.66357143
23-03-28,1297.04,1298.35,1301.38,1293.24,8.14,17.38785714
23-03-29,1305.3,1297.46,1308.45,1294.95,13.5,17.42357143
23-03-30,1296.55,1307.13,1308.17,1296.24,11.93,16.84642857
23-03-31,1306.11,1296.97,1308.53,1288.35,20.18,16.53785714
23-04-03,1308.58,1306.47,1320.92,1305.7,15.22,16.33857143
23-04-04,1310.08,1308.76,1317.58,1304.58,13,15.31071429
23-04-05,1317.05,1310.54,1318.41,1308.71,9.7,14.87714286
23-04-06,1318.5,1317.36,1322.65,1314.65,8,14.62928571
23-04-07,1316.3,1318.99,1320.22,1314.53,5.69,13.98714286
23-04-10,1320.62,1316.39,1324.02,1315.3,8.72,13.92428571
23-04-11,1322.03,1320.99,1324.81,1316.26,8.55,12.97785714
23-04-12,1322.63,1322.45,1328.49,1319.39,9.1,11.87857143
23-04-13,1301.14,1323.07,1327.66,1299.31,28.35,12.13214286
23-04-14,1304,1301.94,1307.83,1294.29,13.54,12.40142857
23-04-17,1319.11,1304.38,1322.67,1303.7,18.97,13.175
23-04-18,1319.13,1319.51,1321.44,1315.72,5.72,12.61928571
23-04-19,1329.71,1319.55,1336.54,1313.69,22.85,13.39928571
23-04-20,1323.61,1330.14,1332.97,1318.97,14,12.95785714
23-04-21,1329.36,1324.04,1333.07,1321.24,11.83,12.71571429
23-04-24,1332.51,1330.38,1337.64,1328.48,9.16,12.44142857
23-04-25,1340.89,1332.94,1344.19,1328.19,16,12.89142857
23-04-26,1338.01,1341.31,1341.95,1334.47,7.48,12.85428571
23-04-27,1339.17,1338.44,1346.63,1336.69,9.94,13.15785714
23-04-28,1337.78,1339.57,1342.19,1336.21,5.98,12.96214286
23-05-01,1342.18,1338.17,1343.95,1336.43,7.52,12.88857143
23-05-02,1342.21,1343.07,1344.08,1337.36,6.72,12.71857143
23-05-03,1334.44,1342.64,1343.21,1329.31,13.9,11.68642857
23-05-04,1322.95,1335.41,1335.99,1320.29,15.7,11.84071429
23-05-05,1317.47,1323.27,1323.74,1315.11,8.63,11.10214286
23-05-08,1321.49,1317.96,1326.23,1317.94,8.76,11.31928571
23-05-09,1325.92,1322.71,1327.36,1319.61,7.75,10.24071429
23-05-10,1317.76,1326.33,1327.13,1316.5,10.63,10
23-05-11,1330.83,1318.21,1334.74,1315.58,19.16,10.52357143
23-05-12,1342.41,1331.14,1343.35,1329.04,14.31,10.89142857
23-05-15,1335.36,1342.48,1342.85,1333.86,8.99,10.39071429
23-05-16,1342.35,1335.79,1343.63,1332.91,10.72,10.62214286
23-05-17,1334.23,1342.78,1343.91,1332.44,11.47,10.73142857
23-05-18,1334.43,1334.71,1338.79,1329.16,9.63,10.99214286
